[likwid-pin] Main PID -> hwthread 0 - OK
ISA,Layout,Stride,Dims,Frequency (GHz),Cache Line Size (B),Vector Width (e),Cache Lines/Gather
avx512,AoS,1,3,2.400000,64,8,3

             N,      Size(kB),       cut CLs,     tot. time,  time/LUP(ms),         cy/it,     cy/gather,       cy/elem
           512,         14.34,           128,  0.4372150659,  0.0011703184,     22.470113,      7.490038,      0.936255
           768,         21.50,           192,  0.4998369289,  0.0011668606,     22.403723,      7.467908,      0.933488
          1152,         32.26,           288,  0.4995660241,  0.0011666350,     22.399392,      7.466464,      0.933308
          1728,         48.38,           432,  0.5002992770,  0.0011961373,     22.965837,      7.655279,      0.956910
          2592,         72.58,           648,  0.4973418530,  0.0012899468,     24.766978,      8.255659,      1.031957
          3888,        108.86,           972,  0.5009522040,  0.0012932553,     24.830502,      8.276834,      1.034604
          5832,        163.30,          1458,  0.4979269101,  0.0012896262,     24.760823,      8.253608,      1.031701
          8752,        245.06,          2188,  0.5004146900,  0.0012882096,     24.733624,      8.244541,      1.030568
         13128,        367.58,          3282,  0.5001377150,  0.0012893266,     24.755071,      8.251690,      1.031461
         19696,        551.49,          4924,  0.4971510910,  0.0012886721,     24.742505,      8.247502,      1.030938
         29544,        827.23,          7386,  0.4928707350,  0.0012871383,     24.713056,      8.237685,      1.029711
         44320,       1240.96,         11080,  0.4934320240,  0.0016515938,     31.710602,     10.570201,      1.321275
         66480,       1861.44,         16620,  0.3106507920,  0.0014620919,     28.072165,      9.357388,      1.169674
         99720,       2792.16,         24930,  0.5001540000,  0.0014084762,     27.042742,      9.014247,      1.126781
        149584,       4188.35,         37396,  0.4991872720,  0.0013963055,     26.809066,      8.936355,      1.117044
        224376,       6282.53,         56094,  0.4994343360,  0.0014052281,     26.980379,      8.993460,      1.124182
        336568,       9423.90,         84142,  0.4930262860,  0.0014517976,     27.874515,      9.291505,      1.161438
        504856,      14135.97,        126214,  0.4975494910,  0.0013939569,     26.763973,      8.921324,      1.115166
        757288,      21204.06,        189322,  0.4940868440,  0.0013941078,     26.766870,      8.922290,      1.115286
       1135936,      31806.21,        283984,  0.4941151830,  0.0014308719,     27.472740,      9.157580,      1.144698
       1703904,      47709.31,        425976,  0.4922854190,  0.0016415692,     31.518128,     10.506043,      1.313255
       2555856,      71563.97,        638964,  0.4932116120,  0.0019894140,     38.196749,     12.732250,      1.591531
       3833784,     107345.95,        958446,  0.4903557550,  0.0022439273,     43.083404,     14.361135,      1.795142
       5750680,     161019.04,       1437670,  0.4818546640,  0.0023275251,     44.688481,     14.896160,      1.862020
       8626024,     241528.67,       2156506,  0.4899082569,  0.0023664256,     45.435372,     15.145124,      1.893140
      12939040,     362293.12,       3234760,  0.4917692130,  0.0023754139,     45.607947,     15.202649,      1.900331
      19408560,     543439.68,       4852140,  0.4627580430,  0.0023842987,     45.778535,     15.259512,      1.907439
INFO: You are running LIKWID in a cpuset with 1 CPUs. Taking given IDs as logical ID in cpuset
[likwid-pin] Main PID -> hwthread 0 - OK
ISA,Layout,Stride,Dims,Frequency (GHz),Cache Line Size (B),Vector Width (e),Cache Lines/Gather
avx512,AoS,2,3,2.400000,64,8,6

             N,      Size(kB),       cut CLs,     tot. time,  time/LUP(ms),         cy/it,     cy/gather,       cy/elem
           512,         14.34,           128,  0.4536531121,  0.0011725706,     22.513355,      7.504452,      0.938056
           768,         21.50,           192,  0.4999548260,  0.0011843481,     22.739483,      7.579828,      0.947478
          1152,         32.26,           288,  0.4998169930,  0.0011765075,     22.588945,      7.529648,      0.941206
          1728,         48.38,           432,  0.4871096751,  0.0011763790,     22.586477,      7.528826,      0.941103
          2592,         72.58,           648,  0.4999336210,  0.0013595045,     26.102487,      8.700829,      1.087604
          3888,        108.86,           972,  0.4988322330,  0.0013559264,     26.033788,      8.677929,      1.084741
          5832,        163.30,          1458,  0.5003965950,  0.0013556299,     26.028095,      8.676032,      1.084504
          8752,        245.06,          2188,  0.5001886520,  0.0013529830,     25.977273,      8.659091,      1.082386
         13128,        367.58,          3282,  0.4993053289,  0.0013553424,     26.022573,      8.674191,      1.084274
         19696,        551.49,          4924,  0.4966541830,  0.0013532249,     25.981918,      8.660639,      1.082580
         29544,        827.23,          7386,  0.4939918960,  0.0013541099,     25.998910,      8.666303,      1.083288
         44320,       1240.96,         11080,  0.4909939680,  0.0013813446,     26.521816,      8.840605,      1.105076
         66480,       1861.44,         16620,  0.2704176380,  0.0020606150,     39.563808,     13.187936,      1.648492
         99720,       2792.16,         24930,  0.4999322799,  0.0020387801,     39.144577,     13.048192,      1.631024
        149584,       4188.35,         37396,  0.4988690090,  0.0019994260,     38.388979,     12.796326,      1.599541
        224376,       6282.53,         56094,  0.4978681779,  0.0020008126,     38.415603,     12.805201,      1.600650
        336568,       9423.90,         84142,  0.4973654770,  0.0020132919,     38.655205,     12.885068,      1.610634
        504856,      14135.97,        126214,  0.4951643849,  0.0020181136,     38.747781,     12.915927,      1.614491
        757288,      21204.06,        189322,  0.4951043630,  0.0020178583,     38.742880,     12.914293,      1.614287
       1135936,      31806.21,        283984,  0.4937428869,  0.0020697967,     39.740097,     13.246699,      1.655837
       1703904,      47709.31,        425976,  0.4862455239,  0.0023391101,     44.910914,     14.970305,      1.871288
       2555856,      71563.97,        638964,  0.4915437090,  0.0030050091,     57.696174,     19.232058,      2.404007
       3833784,     107345.95,        958446,  0.4809325270,  0.0035841689,     68.816043,     22.938681,      2.867335
       5750680,     161019.04,       1437670,  0.4935820830,  0.0039013733,     74.906367,     24.968789,      3.121099
       8626024,     241528.67,       2156506,  0.4819174111,  0.0039905607,     76.618765,     25.539588,      3.192449
      12939040,     362293.12,       3234760,  0.4708791981,  0.0040435698,     77.636539,     25.878846,      3.234856
      19408560,     543439.68,       4852140,  0.4734265030,  0.0040654442,     78.056528,     26.018843,      3.252355
INFO: You are running LIKWID in a cpuset with 1 CPUs. Taking given IDs as logical ID in cpuset
[likwid-pin] Main PID -> hwthread 0 - OK
ISA,Layout,Stride,Dims,Frequency (GHz),Cache Line Size (B),Vector Width (e),Cache Lines/Gather
avx512,AoS,3,3,2.400000,64,8,8

             N,      Size(kB),       cut CLs,     tot. time,  time/LUP(ms),         cy/it,     cy/gather,       cy/elem
           512,         14.34,           128,  0.4565864441,  0.0011912286,     22.871589,      7.623863,      0.952983
           768,         21.50,           192,  0.4998869210,  0.0011840300,     22.733375,      7.577792,      0.947224
          1152,         32.26,           288,  0.4997999540,  0.0011898019,     22.844197,      7.614732,      0.951842
          1728,         48.38,           432,  0.5000082661,  0.0011920975,     22.888272,      7.629424,      0.953678
          2592,         72.58,           648,  0.5002949870,  0.0014292752,     27.442084,      9.147361,      1.143420
          3888,        108.86,           972,  0.5002880900,  0.0014255871,     27.371273,      9.123758,      1.140470
          5832,        163.30,          1458,  0.4987372471,  0.0014251468,     27.362819,      9.120940,      1.140117
          8752,        245.06,          2188,  0.4992074430,  0.0014247700,     27.355584,      9.118528,      1.139816
         13128,        367.58,          3282,  0.5001895949,  0.0014301094,     27.458100,      9.152700,      1.144088
         19696,        551.49,          4924,  0.4967772180,  0.0014322680,     27.499545,      9.166515,      1.145814
         29544,        827.23,          7386,  0.4949226821,  0.0014324116,     27.502303,      9.167434,      1.145929
         44320,       1240.96,         11080,  0.4915952130,  0.0017715940,     34.014604,     11.338201,      1.417275
         66480,       1861.44,         16620,  0.2637067100,  0.0026586511,     51.046101,     17.015367,      2.126921
         99720,       2792.16,         24930,  0.4980921930,  0.0029261322,     56.181738,     18.727246,      2.340906
        149584,       4188.35,         37396,  0.4990011831,  0.0028222726,     54.187634,     18.062545,      2.257818
        224376,       6282.53,         56094,  0.4984229770,  0.0028225843,     54.193618,     18.064539,      2.258067
        336568,       9423.90,         84142,  0.4978334070,  0.0028336141,     54.405392,     18.135131,      2.266891
        504856,      14135.97,        126214,  0.4968330229,  0.0028360472,     54.452107,     18.150702,      2.268838
        757288,      21204.06,        189322,  0.4944794361,  0.0028389603,     54.508038,     18.169346,      2.271168
       1135936,      31806.21,        283984,  0.4924308910,  0.0028900155,     55.488297,     18.496099,      2.312012
       1703904,      47709.31,        425976,  0.4908380250,  0.0032007413,     61.454232,     20.484744,      2.560593
       2555856,      71563.97,        638964,  0.4825065330,  0.0041040154,     78.797096,     26.265699,      3.283212
       3833784,     107345.95,        958446,  0.4867004590,  0.0050780165,     97.497917,     32.499306,      4.062413
       5750680,     161019.04,       1437670,  0.4725773790,  0.0054785101,    105.187394,     35.062465,      4.382808
       8626024,     241528.67,       2156506,  0.4494135530,  0.0057888593,    111.146098,     37.048699,      4.631087
      12939040,     362293.12,       3234760,  0.4535274910,  0.0058418488,    112.163497,     37.387832,      4.673479
      19408560,     543439.68,       4852140,  0.4567083741,  0.0058828215,    112.950172,     37.650057,      4.706257
INFO: You are running LIKWID in a cpuset with 1 CPUs. Taking given IDs as logical ID in cpuset
[likwid-pin] Main PID -> hwthread 0 - OK
ISA,Layout,Stride,Dims,Frequency (GHz),Cache Line Size (B),Vector Width (e),Cache Lines/Gather
avx512,AoS,4,3,2.400000,64,8,8

             N,      Size(kB),       cut CLs,     tot. time,  time/LUP(ms),         cy/it,     cy/gather,       cy/elem
           512,         14.34,             0,  0.4593585579,  0.0011992860,     23.026292,      7.675431,      0.959429
           768,         21.50,             0,  0.5002416250,  0.0011933121,     22.911592,      7.637197,      0.954650
          1152,         32.26,             0,  0.4998566441,  0.0011978339,     22.998410,      7.666137,      0.958267
          1728,         48.38,             0,  0.4999301340,  0.0011972184,     22.986593,      7.662198,      0.957775
          2592,         72.58,             0,  0.4988578201,  0.0011998714,     23.037532,      7.679177,      0.959897
          3888,        108.86,             0,  0.4997716671,  0.0014288329,     27.433592,      9.144531,      1.143066
          5832,        163.30,             0,  0.5000129619,  0.0014288636,     27.434182,      9.144727,      1.143091
          8752,        245.06,             0,  0.5004261620,  0.0014287836,     27.432646,      9.144215,      1.143027
         13128,        367.58,             0,  0.4957899579,  0.0014505796,     27.851129,      9.283710,      1.160464
         19696,        551.49,             0,  0.4976131620,  0.0014652988,     28.133736,      9.377912,      1.172239
         29544,        827.23,             0,  0.4968190551,  0.0014636820,     28.102694,      9.367565,      1.170946
         44320,       1240.96,             0,  0.4612277170,  0.0016701593,     32.067058,     10.689019,      1.336127
         66480,       1861.44,             0,  0.3788262530,  0.0021791010,     41.838740,     13.946247,      1.743281
         99720,       2792.16,             0,  0.4988125671,  0.0029511101,     56.661314,     18.887105,      2.360888
        149584,       4188.35,             0,  0.4989373090,  0.0030267688,     58.113960,     19.371320,      2.421415
        224376,       6282.53,             0,  0.4984092519,  0.0030387314,     58.343643,     19.447881,      2.430985
        336568,       9423.90,             0,  0.4976581400,  0.0030613371,     58.777673,     19.592558,      2.449070
        504856,      14135.97,             0,  0.4979264580,  0.0030725054,     58.992103,     19.664034,      2.458004
        757288,      21204.06,             0,  0.4959754650,  0.0030748187,     59.036519,     19.678840,      2.459855
       1135936,      31806.21,             0,  0.4933807279,  0.0031024178,     59.566422,     19.855474,      2.481934
       1703904,      47709.31,             0,  0.4902778231,  0.0033457900,     64.239167,     21.413056,      2.676632
       2555856,      71563.97,             0,  0.4819826151,  0.0041906605,     80.460682,     26.820227,      3.352528
       3833784,     107345.95,             0,  0.4840597380,  0.0052609004,    101.009288,     33.669763,      4.208720
       5750680,     161019.04,             0,  0.4736849030,  0.0058835887,    112.964903,     37.654968,      4.706871
       8626024,     241528.67,             0,  0.4825379280,  0.0062155317,    119.338208,     39.779403,      4.972425
      12939040,     362293.12,             0,  0.4991118941,  0.0064290176,    123.437138,     41.145713,      5.143214
      19408560,     543439.68,             0,  0.3779399550,  0.0064909496,    124.626233,     41.542078,      5.192760
INFO: You are running LIKWID in a cpuset with 1 CPUs. Taking given IDs as logical ID in cpuset
[likwid-pin] Main PID -> hwthread 0 - OK
ISA,Layout,Stride,Dims,Frequency (GHz),Cache Line Size (B),Vector Width (e),Cache Lines/Gather
avx512,AoS,5,3,2.400000,64,8,8

             N,      Size(kB),       cut CLs,     tot. time,  time/LUP(ms),         cy/it,     cy/gather,       cy/elem
           512,         14.34,           128,  0.4264164640,  0.0012120557,     23.271469,      7.757156,      0.969645
           768,         21.50,           192,  0.4999011430,  0.0012013653,     23.066214,      7.688738,      0.961092
          1152,         32.26,           288,  0.4982945720,  0.0012104848,     23.241308,      7.747103,      0.968388
          1728,         48.38,           432,  0.4998831180,  0.0012132827,     23.295028,      7.765009,      0.970626
          2592,         72.58,           648,  0.5002385731,  0.0013861373,     26.613835,      8.871278,      1.108910
          3888,        108.86,           972,  0.4998519709,  0.0014882359,     28.574130,      9.524710,      1.190589
          5832,        163.30,          1458,  0.5002286460,  0.0014871797,     28.553850,      9.517950,      1.189744
          8752,        245.06,          2188,  0.4985738670,  0.0014875405,     28.560777,      9.520259,      1.190032
         13128,        367.58,          3282,  0.4992537569,  0.0015010732,     28.820605,      9.606868,      1.200859
         19696,        551.49,          4924,  0.4971320360,  0.0015128419,     29.046564,      9.682188,      1.210273
         29544,        827.23,          7386,  0.4960588610,  0.0015153891,     29.095471,      9.698490,      1.212311
         44320,       1240.96,         11080,  0.4931957501,  0.0016345568,     31.383491,     10.461164,      1.307645
         66480,       1861.44,         16620,  0.3315695430,  0.0024129212,     46.328087,     15.442696,      1.930337
         99720,       2792.16,         24930,  0.4967237411,  0.0036226798,     69.555452,     23.185151,      2.898144
        149584,       4188.35,         37396,  0.4990308780,  0.0036540249,     70.157277,     23.385759,      2.923220
        224376,       6282.53,         56094,  0.4982479390,  0.0036583093,     70.239538,     23.413179,      2.926647
        336568,       9423.90,         84142,  0.4971481740,  0.0036835677,     70.724499,     23.574833,      2.946854
        504856,      14135.97,        126214,  0.4979202379,  0.0036938648,     70.922204,     23.640735,      2.955092
        757288,      21204.06,        189322,  0.4981437590,  0.0036955035,     70.953667,     23.651222,      2.956403
       1135936,      31806.21,        283984,  0.4942044490,  0.0037831621,     72.636712,     24.212237,      3.026530
       1703904,      47709.31,        425976,  0.4912228070,  0.0043028737,     82.615175,     27.538392,      3.442299
       2555856,      71563.97,        638964,  0.4897069001,  0.0054743404,    105.107335,     35.035778,      4.379472
       3833784,     107345.95,        958446,  0.4962334669,  0.0064718496,    124.259512,     41.419837,      5.177480
       5750680,     161019.04,       1437670,  0.4725506450,  0.0068477503,    131.476805,     43.825602,      5.478200
       8626024,     241528.67,       2156506,  0.4438983320,  0.0073514805,    141.148426,     47.049475,      5.881184
      12939040,     362293.12,       3234760,  0.4888903691,  0.0075568260,    145.091059,     48.363686,      6.045461
      19408560,     543439.68,       4852140,  0.4453790460,  0.0076491858,    146.864368,     48.954789,      6.119349
INFO: You are running LIKWID in a cpuset with 1 CPUs. Taking given IDs as logical ID in cpuset
[likwid-pin] Main PID -> hwthread 0 - OK
ISA,Layout,Stride,Dims,Frequency (GHz),Cache Line Size (B),Vector Width (e),Cache Lines/Gather
avx512,AoS,6,3,2.400000,64,8,8

             N,      Size(kB),       cut CLs,     tot. time,  time/LUP(ms),         cy/it,     cy/gather,       cy/elem
           512,         14.34,           128,  0.3782631510,  0.0012198124,     23.420397,      7.806799,      0.975850
           768,         21.50,           192,  0.4998990981,  0.0012188715,     23.402333,      7.800778,      0.975097
          1152,         32.26,           288,  0.5000692740,  0.0012073122,     23.180395,      7.726798,      0.965850
          1728,         48.38,           432,  0.5000652471,  0.0012120726,     23.271794,      7.757265,      0.969658
          2592,         72.58,           648,  0.5002404831,  0.0012142570,     23.313735,      7.771245,      0.971406
          3888,        108.86,           972,  0.4988273440,  0.0014960612,     28.724375,      9.574792,      1.196849
          5832,        163.30,          1458,  0.4994169479,  0.0014992980,     28.786523,      9.595508,      1.199438
          8752,        245.06,          2188,  0.4997554211,  0.0014990511,     28.781781,      9.593927,      1.199241
         13128,        367.58,          3282,  0.5000640861,  0.0015182516,     29.150431,      9.716810,      1.214601
         19696,        551.49,          4924,  0.4972126849,  0.0015316314,     29.407322,      9.802441,      1.225305
         29544,        827.23,          7386,  0.4970702589,  0.0015341246,     29.455193,      9.818398,      1.227300
         44320,       1240.96,         11080,  0.4909650099,  0.0019585803,     37.604742,     12.534914,      1.566864
         66480,       1861.44,         16620,  0.3790668111,  0.0020779766,     39.897150,     13.299050,      1.662381
